# f(Hz) U(V)
259.417 0.076
259.617 0.082
259.817 0.089
260.217 0.112
260.617 0.156
261.017 0.286
261.117 0.371
261.167 0.436
261.207 0.505
261.247 0.610
261.287 0.752
261.317 0.911
261.337 1.043
261.357 1.194
261.377 1.349
261.397 1.466
261.407 1.496
261.417 1.498 #
261.427 1.473
261.437 1.419
261.457 1.290
261.477 1.144
261.507 0.936
261.547 0.729
261.587 0.586
261.657 0.427
261.777 0.280
262.037 0.152
262.337 0.095
262.737 0.059
263.137 0.040
263.417 0.032